Vernier Format 2
1cm_data_100.cmbl 11/20/17 4:28 PM .
Latest
Time	Angle	Velocity	Acceleration
t	Angle	v	a
s	rad	rad/s	rad/s²

0	0	1.14416028742	2.18166156499
0.05	0.0523598775598	1.25566743407	2.11701974083
0.1	0.12217304764	1.36717458073	1.97642377331
0.15	0.191986217719	1.43504849608	2.08739223813
0.2	0.261799387799	1.5707963268	2.23822316115
0.25	0.349065850399	1.69684788389	1.78303698273
0.3	0.436332312999	1.74532925199	1.44905422463
0.35	0.523598775598	1.7938106201	1.96618881785
0.4	0.610865238198	1.92955845082	2.74727752633
0.45	0.715584993318	2.09439510239	3.03816573504
0.5	0.820304748437	2.25923175398	2.75266434515
0.55	0.942477796077	2.39497958471	2.0038965487
0.6	1.06465084372	2.44346095282	1.63759287826
0.65	1.18682389136	2.50163859453	2.30017157554
0.7	1.308996939	2.65677897247	3.27518575629
0.75	1.44862327916	2.88948953935	3.22670438842
0.8	1.60570291183	2.99614854919	2.76882480129
0.85	1.74532925199	3.14159265358	2.65031479054
0.9	1.91986217719	3.27734048431	2.33249248828
0.95	2.07694180987	3.35491067329	2.41868158698
1	2.25147473507	3.50035477762	2.78498525707
1.05	2.42600766027	3.65549515558	2.79037207573
1.1	2.61799387799	3.80093925991	2.45100249895
1.15	2.80998009571	3.87850944889	2.47793659235
1.2	3.00196631343	4.02395355322	2.93581618006
1.25	3.21140582367	4.1887902048	3.07587346572
1.3	3.42084533391	4.35362685638	2.75805116365
1.35	3.64773813667	4.48937468709	2.00389654857
1.4	3.87463093943	4.5378560552	1.63220605964
1.45	4.10152374219	4.59603369693	2.26785066359
1.5	4.32841654495	4.75117407487	3.12974165204
1.55	4.57276264023	4.97418836813	2.93581617978
1.6	4.83456202802	5.06145483073	2.42406840584
1.65	5.0789081233	5.14872129338	2.93581618053
1.7	5.3407075111	5.37173558671	3.13512847146
1.75	5.61996019142	5.52687596467	2.30017157604
1.8	5.89921287174	5.5850536064	1.7776501641
1.85	6.17846555206	5.64323124813	2.30017157594
1.9	6.45771823238	5.79837162609	3.12974165248
1.95	6.75442420522	6.0213859194	2.8981084492
2	7.06858347058	6.10865238199	2.24630338888
2.05	7.36528944342	6.18622257096	2.4994838666
2.1	7.67944870878	6.38014804335	2.49948386678
2.15	8.01106126665	6.45771823233	2.24630338943
2.2	8.32522053201	6.54498469498	2.89810844979
2.25	8.65683308989	6.76799898831	3.12435483415
2.3	9.00589894029	6.92313936627	2.26785066401
2.35	9.35496479069	6.98131700801	1.62681924092
2.4	9.70403064109	7.02979837613	1.96618881722
2.45	10.0530964915	7.16554620674	2.57489932814
2.5	10.4196156344	7.32068658463	2.6018334234
2.55	10.7861347773	7.45643441567	2.11701974204
2.6	11.1701072128	7.51461205739	1.95541517829
2.65	11.5366263557	7.59218224594	2.79037207381
2.7	11.9205987911	7.81519653939	3.27518575716
2.75	12.3220245191	7.98003319094	2.7365038904
2.8	12.723450247	8.06729965367	2.44561568302
2.85	13.124875975	8.20304748472	2.49409704873
2.9	13.5437549955	8.33879531528	2.26785065957
2.95	13.962634016	8.41636550372	2.25707702219
3	14.3815130364	8.55211333428	2.42406840583
3.05	14.8178453494	8.68786116533	2.11163292466
3.1	15.2541776624	8.75573508078	1.93386790731
3.15	15.6905099754	8.87209036422	1.93386790735
3.2	16.1442955809	8.93996427967	2.11163292485
3.25	16.5806278939	9.07571211072	2.42945522537
3.3	17.051866792	9.21145994133	2.28939793611
3.35	17.5056523975	9.28903012989	2.4132947667
3.4	17.9768912955	9.43447423444	2.78498525775
3.45	18.4481301936	9.58961461239	2.78498525762
3.5	18.9368223841	9.73505871672	2.41329476932
3.55	19.4255145747	9.812628906	2.29478475589
3.6	19.9142067653	9.94837673622	2.46177613364
3.65	20.4203522483	10.0841245668	2.26246384648
3.7	20.9264977314	10.1616947562	2.26246384747
3.75	21.4326432145	10.2974425869	2.45638931756
3.8	21.9562419901	10.4331904176	2.257077025
3.85	22.4798407657	10.5107606064	2.22475611231
3.9	23.0034395413	10.646508437	2.27862429972
3.95	23.5444916094	10.772559994	1.82613153302
4	24.0855436775	10.8210413622	1.63220606361
4.05	24.6265957456	10.8792190044	2.44022886454
4.1	25.1676478138	11.044055656	3.56607396435
4.15	25.7261531744	11.2961587699	3.56068714386
4.2	26.3021118276	11.4609954213	2.40252112849
4.25	26.8780704807	11.519173063	1.44905422389
4.3	27.4540291339	11.5579581575	1.34670467009
4.35	28.029987787	11.6549208937	1.42750695133
4.4	28.6233997327	11.7034022622	1.55140377886
4.45	29.1993583859	11.7712761771	2.27323748009
4.5	29.7927703315	11.9652016494	2.45638931892
4.55	30.4036355697	12.0427718388	2.24091657383
4.6	30.9970475154	12.1300383015	2.89810845145
4.65	31.6079127536	12.3530525948	3.11896801728
4.7	32.2362312843	12.5081929731	2.23014293361
4.75	32.8645498151	12.5663706147	1.44366740176
4.8	33.4928683458	12.6051557087	1.4921487688
4.85	34.1211868765	12.7118147183	1.75610288759
4.9	34.7669586997	12.7796886337	2.06853837525
4.95	35.3952772304	12.9154364648	2.38636067846
5	36.0585023462	13.0511842956	2.10624610586
5.05	36.7042741694	13.119058211	1.93386790762
5.1	37.3674992852	13.2354134947	1.93386790463
5.15	38.030724401	13.3032874097	2.11163291886
5.2	38.6939495167	13.4390352402	2.42406840395
5.25	39.374627925	13.5747830711	2.25169020546
5.3	40.0553063333	13.6523532597	2.22475611185
5.35	40.7359847415	13.7881010903	2.27323748401
5.4	41.4341164423	13.9141526477	1.78303698664
5.45	42.1322481431	13.962634016	1.41134649775
5.5	42.8303798439	14.0111153843	1.78303698645
5.55	43.5285115447	14.1371669417	2.27323748318
5.6	44.2440965381	14.2729147723	2.21936929148
5.65	44.9596815314	14.3504849607	2.2193692913
5.7	45.6752665247	14.4862327913	2.27323748213
5.75	46.4083048105	14.6122843487	1.78303698373
5.8	47.1413430964	14.6607657168	1.41134649306
5.85	47.8743813822	14.7092470846	1.78303698364
5.9	48.607419668	14.835298642	2.27323748596
5.95	49.3579112464	14.9710464731	2.21936929596
6	50.1084028248	15.0486166617	2.21936929315
6.05	50.8588944031	15.1843644922	2.26785066262
6.1	51.626839274	15.3104160495	1.74532925025
6.15	52.3947841449	15.3588974172	1.22819465735
6.2	53.1627290157	15.3976825117	1.30361012269
6.25	53.9306738866	15.4946452483	1.42212013451
6.3	54.71607205	15.5431266166	1.55140378056
6.35	55.4840169209	15.6110005319	2.26785066253
6.4	56.2694150843	15.8049260041	2.41868158537
6.45	57.0722665402	15.8824961931	2.0577647358
6.5	57.8576647036	15.9600663821	2.41868158898
6.55	58.6605161595	16.1539918548	2.27323748383
6.6	59.480820908	16.2218657702	1.58911150861
6.65	60.2836723639	16.2703471379	1.60527196559
6.7	61.1039771123	16.377006148	1.77765016506
6.75	61.9242818608	16.4448800634	2.04160427889
6.8	62.7445866092	16.580627894	2.23552975012
6.85	63.5823446502	16.7066794509	1.77765016244
6.9	64.4201026911	16.755160819	1.40595967469
6.95	65.2578607321	16.8036421871	1.74532925272
7	66.095618773	16.9296937442	2.09008564975
7.05	66.9508301065	17.0557453017	1.74532925302
7.1	67.80604144	17.1042266697	1.40595967188
7.15	68.6612527735	17.1527080373	1.77765016031
7.2	69.5164641069	17.2787595943	2.23552975228
7.25	70.3891287329	17.4145074253	2.03621746324
7.3	71.2617933589	17.4823813408	1.74532925377
7.35	72.1344579849	17.5890403506	1.4598278641
7.4	73.0245759034	17.6278254452	1.29283648639
7.45	73.8972405294	17.6763068138	1.8961601759
7.5	74.787358448	17.8120546443	2.5533520492
7.55	75.6774763665	17.9671950217	2.52641795583
7.6	76.5850475775	18.1029428522	1.73994243435
7.65	77.4926187885	18.1417279472	0.931919635093
7.7	78.4001899996	18.1611204946	0.786475528951
7.75	79.3077612106	18.1902093154	1.27128920787
7.8	80.2153324217	18.2968683252	1.70762151969
7.85	81.1403569252	18.3647422404	2.02544382188
7.9	82.0479281363	18.5004900711	2.1978220204
7.95	82.9904059323	18.6265416281	1.59449833018
8	83.9154304359	18.6653267229	0.931919631451
8.05	84.857908232	18.6847192698	0.926532811637
8.1	85.7829327355	18.7235043643	1.56217741796
8.15	86.7254105316	18.8495559217	2.04699109784
8.2	87.6678883277	18.9756074787	1.7022346987
8.25	88.6278194163	19.0240888463	1.21742101833
8.3	89.5702972123	19.0628739407	1.26590239136
8.35	90.5302283009	19.1598366773	1.23358148182
8.4	91.4901593895	19.198621772	1.03426919062
8.45	92.4500904781	19.2374068667	1.22819466312
8.5	93.4100215667	19.3343696033	1.22819466043
8.55	94.3874059479	19.3731546977	1.02888236374
8.6	95.3473370365	19.4119397917	1.19587374083
8.65	96.3247214176	19.5089025276	1.0827505512
8.7	97.3021057987	19.5379913484	0.737994159999
8.75	98.2794901798	19.5573838958	0.851117354568
8.8	99.2568745609	19.5961689906	1.36825194516
8.85	100.234258942	19.7125242749	1.54063012602
8.9	101.229096616	19.8094870081	0.737994140092
8.95	102.223934289	19.7610056384	0.398624604629
9	103.20131867	19.7803981906	1.23358151877
9.05	104.196156344	19.8967534767	1.89616017784
9.1	105.190994018	20.0228050311	1.66991375923
9.15	106.203284984	20.071286395	1.20664737932
9.2	107.198122657	20.1100714933	1.23358149969
9.25	108.210413624	20.2070342317	1.08813736204
9.3	109.22270459	20.2361230483	0.743380948766
9.35	110.234995556	20.2555155944	0.888825076852
9.4	111.247286522	20.2943006894	1.55140380123
9.45	112.259577488	20.4203522494	2.0092833929
9.5	113.289321747	20.5464038083	1.51908286018
9.55	114.319066006	20.5851888989	0.74338095926
9.6	115.348810264	20.5948851722	0.452492779939
9.65	116.378554523	20.6045814494	0.743380985184
9.7	117.408298782	20.6433665411	1.51908286821
9.75	118.43804304	20.7694181	2.00389655562
9.8	119.485240592	20.8954696583	1.51369602457
9.85	120.532438143	20.9342547483	0.700286388828
9.9	121.579635694	20.9439510207	0.245638907777
9.95	122.626833245	20.94395102	0.0619484017571
10	123.674030796	20.94395102	0.0107736329598
