Vernier Format 2
1cm_data_150.cmbl 11/20/17 4:28 PM .
Latest
Time	Angle	Velocity	Acceleration
t	Angle	v	a
s	rad	rad/s	rad/s²

0	0	2.38528331106	0.600091600774
0.05	0.12217304764	2.37073890062	1.70277338439
0.1	0.226892802759	2.49582083035	3.04624596296
0.15	0.366519142919	2.72465288783	3.576308921
0.2	0.506145483078	2.86040071855	3.94476731868
0.25	0.645771823238	3.11250383273	4.30730021583
0.3	0.820304748437	3.3161255788	4.18017129501
0.35	0.977384381117	3.51974732488	4.1747844761
0.4	1.16937059884	3.76215416542	3.70613125064
0.45	1.36135681656	3.87850944882	3.47988486623
0.5	1.55334303427	4.06273864764	3.98624582267
0.55	1.76278254451	4.31484176187	3.86773581197
0.6	1.98967534727	4.48937468708	3.15667574617
0.65	2.21656815003	4.58633742331	3.1836098394
0.7	2.44346095279	4.76087034851	4.01856673456
0.75	2.68780704807	5.02266973631	4.31484176189
0.8	2.94960643587	5.22629148238	3.99701945982
0.85	3.21140582367	5.4105206812	3.82464126208
0.9	3.49065850399	5.59474988002	3.85696217407
0.95	3.76991118431	5.78867535246	4.01856673427
1	4.06661715715	6.031082193	3.64148942655
1.05	4.38077642251	6.14743747642	3.32366712467
1.1	4.67748239534	6.32197040162	3.65764988333
1.15	5.00909495322	6.5546809686	3.34521440013
1.2	5.3407075111	6.66133997846	3.00584482316
1.25	5.67232006898	6.81648035642	3.34521439977
1.3	6.02138591938	6.99101328162	3.81386762474
1.35	6.37045176978	7.19463502769	4.27713403103
1.4	6.7369709127	7.45643441548	4.01317991559
1.45	7.12094334814	7.63096734067	3.18899665751
1.5	7.50491578358	7.72793007684	3.18899665769
1.55	7.88888821901	7.90246300204	4.01317991608
1.6	8.29031394697	8.16426238989	4.2717472126
1.65	8.70919296745	8.36788413596	3.7815467121
1.7	9.12807198793	8.54241706111	3.19977029395
1.75	9.56440430093	8.68786116528	2.70956979474
1.8	10.0007366139	8.77512762788	2.96813709337
1.85	10.4370689269	8.94966055321	3.79232035308
1.9	10.8908545324	9.20176366771	3.79232035231
1.95	11.3620934305	9.37629659289	2.9681370922
2	11.8333323285	9.46356305544	2.70956979466
2.05	12.3045712266	9.60900715967	3.19977029482
2.1	12.7932634171	9.78354008483	3.7815467141
2.15	13.2819556077	9.98716183122	4.26636039463
2.2	13.7881010908	10.2489612189	3.97547218349
2.25	14.3116998664	10.4234941439	3.00045800188
2.3	14.835298642	10.5107606064	2.67724888083
2.35	15.3588974176	10.6562047106	3.02200527657
2.4	15.8999494857	10.8210413621	3.33982758012
2.45	16.4410015538	10.9955742872	3.60378169809
2.5	16.9995069144	11.1798034864	3.81386762719
2.55	17.5580122751	11.3737289588	4.01317991713
2.6	18.1339709282	11.6161357993	3.64148942966
2.65	18.7273828739	11.7324910832	3.32905394577
2.7	19.3033415271	11.9070240084	3.69535761253
2.75	19.9142067653	12.1397345751	3.52297941315
2.8	20.5250720035	12.2560898584	3.44217713238
2.85	21.1359372417	12.4403190571	3.97547218167
2.9	21.7642557724	12.692422171	3.83002807935
2.95	22.4100275956	12.8669550962	2.96813709469
3	23.0557994188	12.9542215592	2.67186206855
3.05	23.7015712421	13.0996656636	3.01661846262
3.1	24.3647963578	13.2645023152	3.30211985306
3.15	25.0280214736	13.4390352408	3.41524304352
3.2	25.7086998819	13.6135681659	3.30211984691
3.25	26.3893782902	13.7784048172	3.01661845426
3.3	27.087509991	13.9238489209	2.67186206188
3.35	27.7856416917	14.0111153836	2.96275027778
3.4	28.4837733925	14.1856483096	3.7977071729
3.45	29.1993583859	14.4377514237	3.83002807926
3.5	29.9323966717	14.6122843484	3.15128892596
3.55	30.6654349575	14.7092470849	3.18360983997
3.6	31.3984732434	14.8837800101	4.01317991611
3.65	32.1489648217	15.1455793978	4.27174721417
3.7	32.9169096926	15.3492011442	3.77615989559
3.75	33.6848545635	15.5237340693	3.16206256395
3.8	34.4702527269	15.6691781736	2.52641795886
3.85	35.2556508903	15.7467483624	2.49409704679
3.9	36.0410490537	15.8921924667	2.98429754753
3.95	36.8439005096	16.0570291182	3.3344407634
4	37.6467519655	16.2315620437	3.59839487756
4.05	38.467056714	16.4157912424	3.77615989086
4.1	39.2873614624	16.6097167143	3.8300280804
4.15	40.1251195033	16.8424272816	3.16206256972
4.2	40.9803308368	16.9296937447	2.47254977846
4.25	41.8180888778	17.0169602074	2.98429754855
4.3	42.6733002113	17.2399745006	3.35598803444
4.35	43.5459648373	17.4048111519	2.96275027034
4.4	44.4186294633	17.5017738881	3.1028075558
4.45	45.2912940893	17.6763068131	3.78693352809
4.5	46.1814120078	17.928409927	3.61455533244
4.55	47.0889832188	18.0932465786	2.48871023278
4.6	47.9965544298	18.1514242208	1.85845244873
4.65	48.9041256409	18.2096018627	2.5210311437
4.7	49.8116968519	18.3744385142	3.75461261907
4.75	50.7367213555	18.6362379021	4.0455008246
4.8	51.6791991516	18.830163374	3.29673302793
4.85	52.6216769476	18.9756074782	2.3432661266
4.9	53.5816080362	19.0337851204	1.99850973272
4.95	54.5240858323	19.1113553094	2.80114571367
5	55.4840169209	19.3343696026	3.31289348759
5.05	56.461401302	19.4992062542	2.91965572577
5.1	57.4387856831	19.5961689908	2.9196557246
5.15	58.4161700643	19.7610056422	3.31289348395
5.2	59.4110077379	19.9840199349	2.79575889247
5.25	60.423298704	20.0615901242	1.9608020008
5.3	61.4181363777	20.1197677661	2.1547274729
5.35	62.4304273438	20.2555155968	2.78498525775
5.4	63.44271831	20.4203522486	3.04893937009
5.45	64.4724625687	20.5851888996	2.78498525404
5.5	65.5022068273	20.7209367302	2.15472747324
5.55	66.5494043785	20.7791143724	1.96080200284
5.6	67.5791486372	20.8566845615	2.78498525932
5.65	68.6263461884	21.0796988548	3.23747802812
5.7	69.6909970321	21.2445355067	2.55335205417
5.75	70.7556478759	21.3221056956	1.96618881386
5.8	71.8202987196	21.4287647048	1.64836651197
5.85	72.9024028558	21.4772460729	1.62681924139
5.9	73.9670536995	21.5451199886	2.42406840583
5.95	75.0491578358	21.7487417345	2.74727752411
6	76.1487152645	21.8457044703	2.58028614806
6.05	77.2308194007	21.9911485751	2.56951251466
6.1	78.347830122	22.1268964062	2.10624610599
6.15	79.4473875508	22.1947703216	1.76148970515
6.2	80.5643982721	22.3014293308	1.49214877083
6.25	81.6814089933	22.3402144253	1.44366740738
6.3	82.7984197146	22.3983920674	2.22475611657
6.35	83.9154304359	22.5535324454	3.08126028358
6.4	85.0498944497	22.7765467385	2.71495661219
6.45	86.201811756	22.8541169274	1.76687652512
6.5	87.3362757698	22.9025982954	1.64297969633
6.55	88.4881930761	23.0092573052	1.78842380231
6.6	89.6401103824	23.0771312207	2.07931201346
6.65	90.7920276887	23.2128790518	2.41868158985
6.7	91.9613982876	23.3486268825	2.25707702685
6.75	93.1307688864	23.4261970714	2.25707702515
6.8	94.3001394853	23.561944902	2.42406840395
6.85	95.4869633766	23.6976927326	2.11163292423
6.9	96.673787268	23.7655666481	1.93386791324
6.95	97.8606111593	23.8819219321	1.93386791744
7	99.0648883432	23.9497958493	2.1062460991
7.05	100.251712235	24.0855436779	2.39174747046
7.1	101.473442711	24.2212915067	2.10624609126
7.15	102.677719895	24.2891654221	1.9338679159
7.2	103.899450371	24.4055207078	1.92848110037
7.25	105.121180848	24.4733946233	2.07392518873
7.3	106.342911324	24.6091424522	2.24091657228
7.35	107.582095093	24.7351940111	1.77765017284
7.4	108.821278862	24.7836753794	1.41134649228
7.45	110.060462631	24.8321567472	1.78303697006
7.5	111.2996464	24.9582083022	2.27323747654
7.55	112.556283461	25.0939561344	2.21936929815
7.6	113.812920523	25.1715263233	2.21936928827
7.65	115.069557584	25.3072741522	2.27323748333
7.7	116.343647938	25.4333257111	1.78303699136
7.75	117.617738292	25.4818070794	1.41134649228
7.8	118.891828646	25.5302884472	1.77765015154
7.85	120.165919	25.6563400022	2.23552974691
7.9	121.457462646	25.7920878344	2.03083064969
7.95	122.749006293	25.85996175	1.70762152716
8	124.040549939	25.9666207589	1.27667604877
8.05	125.349546878	25.9957095839	0.818796458025
8.1	126.641090525	26.0151021311	1.08275053457
8.15	127.950087464	26.063583495	2.06853835123
8.2	129.24163111	26.2187238739	3.05432618796
8.25	130.568081342	26.4417381672	2.74189070432
8.3	131.894531573	26.5193083561	1.91232062284
8.35	133.220981805	26.5774859972	1.93386789043
8.4	134.547432036	26.7035375522	2.12779337685
8.45	135.89133556	26.8295891111	1.75071608704
8.5	137.235239084	26.87807048	1.40057287377
8.55	138.579142608	26.9265518489	1.74532927037
8.6	139.923046132	27.0526034078	2.09008565556
8.65	141.284402949	27.1786549633	1.73994244012
8.7	142.645759765	27.2271363322	1.36286515123
8.75	144.007116582	27.2756177044	1.55679060093
8.8	145.368473399	27.3919729856	1.56756419136
8.85	146.747283508	27.4889357178	0.662578641975
8.9	148.126093617	27.4404543461	-0.0161604817911
8.95	149.487450433	27.4404543461	0.0161604817894
9	150.866260542	27.4889357178	-0.662578641974
9.05	152.245070651	27.3919729856	-1.56217737284
9.1	153.606427468	27.2756177044	-1.5190828713
9.15	154.967784285	27.2271363322	-1.17648123043
9.2	156.329141101	27.1883512367	-1.24004568096
9.25	157.690497918	27.0913885011	-1.15062450275
9.3	159.034401442	27.0584211663	-0.859736295091
9.35	160.395758258	27.0332108542	-1.00948982765
9.4	161.739661782	26.9556406667	-1.26913446772
